Time, Position, Velocity, Voltage
0.010000000000000002,0.002844424468202966,0.5898863505263103,12.0
0.02000000000000001,0.010666637723255032,0.9887571159031416,12.0
0.03000000000000002,0.021854744122847915,1.258466505398844,12.0
0.04000000000000003,0.0353188082108019,1.4408392463878226,12.0
0.05000000000000004,0.05032183481977693,1.5641564832034252,12.0
0.060000000000000046,0.06636548079229246,1.6475414277591163,12.0
0.07000000000000005,0.08311277525850683,1.7039248592898812,12.0
0.08000000000000006,0.10033586444854811,1.7420503430702445,12.0
0.09000000000000007,0.11788067765455579,1.7678301240098564,12.0
0.10000000000000007,0.13564303497626323,1.7852619580325548,12.0
0.11000000000000008,0.15355249179917968,1.797049057314225,12.0
0.12000000000000009,0.17156141471515193,1.8050192863386085,12.0
0.1300000000000001,0.18963759485216475,1.8104086148903678,12.0
0.1400000000000001,0.20775925313799326,1.8140527839788532,12.0
0.1500000000000001,0.22591166294741594,1.8165169069615086,12.0
0.16000000000000011,0.24408486639571755,1.8181831035419136,12.0
0.17000000000000012,0.2622015845941102,1.804679783543323,11.702383902659907
0.18000000000000013,0.2799986561774101,1.752890710165485,10.834588957134144
0.19000000000000014,0.29715863764200695,1.6763816658605493,9.990558212818716
0.20000000000000015,0.31348258460769207,1.5851600037054963,9.187265986316566
0.21000000000000016,0.32885736499751805,1.4862755352629722,8.430469635928857
0.22000000000000017,0.3432299732465716,1.3846271739224925,7.7228535076447
0.23000000000000018,0.3565888905569024,1.283557966887143,7.065037820194848
0.24000000000000019,0.36895062499517417,1.185290343008456,6.456247899338101
0.25000000000000017,0.38035003830629766,1.0912440309112037,5.894794498206943
0.2600000000000002,0.39083343683269767,1.0022678973360495,5.378416935341761
0.2700000000000002,0.4004536764576608,0.918808666413223,4.9045262791857125
0.2800000000000002,0.4092667317134975,0.8410333866526816,4.470375862033462
0.2900000000000002,0.41732932626398156,0.7689180331363403,4.073179109565346
0.3000000000000002,0.4246973299703093,0.7023113401710301,3.7101893137133946
0.3100000000000002,0.43142470703551405,0.6409805401412317,3.378752042822666
0.32000000000000023,0.43756285790642635,0.5846439063539914,3.076337996208771
0.33000000000000024,0.4431602402911786,0.5329936913574059,2.8005619926223435
0.34000000000000025,0.44826218593780787,0.48571209259696263,2.5491922297113545
0.35000000000000026,0.4529108527397004,0.44248217249235694,2.3201528142930883
0.36000000000000026,0.457145268509171,0.4029951425373491,2.1115217308338208
0.3700000000000003,0.46100143502496566,0.3669550411973544,1.9215258069367325
0.3800000000000003,0.46451246991345796,0.33408155670392753,1.7485337902962206
0.3900000000000003,0.467708770448897,0.30411154149002784,1.5910483277222642
0.4000000000000003,0.4706181881033751,0.2767996152510314,1.4476974013188926
0.4100000000000003,0.4732662061182424,0.2519181439557622,1.3172256060946985
0.4200000000000003,0.47567611485513467,0.22925680191347764,1.198485529848612
0.4300000000000003,0.4778691814732288,0.2086218653953001,1.0904294073729837
0.44000000000000034,0.4798648117581837,0.18983534355729015,0.9921011575060046
0.45000000000000034,0.48168070283561654,0.1727340212888332,0.9026288664886284
0.46000000000000035,0.4833329861392168,0.15716846600808831,0.821217749412555
0.47000000000000036,0.4848363604449195,0.14300203406455175,0.7471435996023823
0.48000000000000037,0.486204215082279,0.13010990061217878,0.6797467208613783
0.4900000000000004,0.48744874363201907,0.11837812835539761,0.6184263276551016
0.5000000000000003,0.4885810485436913,0.10770278454256137,0.5626353920714022
0.5100000000000003,0.489611237180597,0.09798911132529338,0.5118759127293071
0.5200000000000004,0.49054850983599724,0.08915075163290301,0.4656945789503597
0.5300000000000004,0.4914012402762961,0.08110903067345765,0.42367880289932547
0.5400000000000004,0.49217704936142015,0.07379229180745471,0.3854530926482225
0.5500000000000004,0.49288287227581024,0.06713528465644426,0.3506757399278637
0.5600000000000004,0.49352501987946396,0.061078602768972846,0.31903579750062416
0.5700000000000004,0.4941092346602583,0.05556816786896421,0.2902503224688102
0.5800000000000004,0.4946407417384145,0.05055475758385667,0.2640618633221825
0.5900000000000004,0.49512429534288693,0.04599357353846445,0.2402361700551081
0.6000000000000004,0.49556422114864074,0.04184384676730021,0.21856010819830907
0.6100000000000004,0.4959644548338728,0.03806847751555412,0.19883975908112195
0.6200000000000004,0.49632857718765494,0.03463370664748587,0.18089869004668024
0.6300000000000004,0.49665984607145836,0.0315088160467767,0.1645763796715327
0.6400000000000005,0.49696122551270566,0.028665855566794508,0.14972678428828878
0.6500000000000005,0.49723541218491335,0.026079394263019678,0.13621703327021617
0.6600000000000005,0.49748485950713633,0.023726293810664947,0.12392624161351229
0.6700000000000005,0.4977117995752446,0.021585502174836242,0.11274442934631868
0.6800000000000005,0.4979182631189938,0.019637865756677714,0.10257153820879772
0.6900000000000005,0.49810609766178876,0.017865958385773206,0.09331653688832375
0.7000000000000005,0.4982769840444072,0.016253925666252486,0.08489660686469946
0.7100000000000005,0.4984324514596362,0.01478734331143108,0.07723640162466516
0.7200000000000005,0.49857389113169387,0.013453088219659287,0.07026737265013239
0.7300000000000005,0.49870256876235575,0.012239221152659982,0.06392715617284939
0.7400000000000005,0.49881963585480293,0.011134879977494627,0.05815901522574496
0.7500000000000006,0.4989261400162595,0.010130182524905298,0.052911332011147394
0.7600000000000006,0.4990230343314203,0.009216138200690309,0.04813714605293118
0.7700000000000006,0.4991111858904074,0.008384567563518292,0.04379373400667852
0.7800000000000006,0.4991913835474626,0.00762802915271358,0.03984222737285492
0.7900000000000006,0.49926434497973204,0.006939752913581837,0.0362472646960299
0.8000000000000006,0.49933072310925253,0.006313579626239404,0.032976675140239387
0.8100000000000006,0.49939111194556784,0.005743905797190512,0.030001190611224082
0.8200000000000006,0.4994460519012279,0.0052256335214283965,0.02729418385065241
0.8300000000000006,0.49949603462771713,0.0047541248670816124,0.024831430159935053
0.8400000000000006,0.4995415074150708,0.004325160374901478,0.022590890621922988
0.8500000000000006,0.4995828771945394,0.003934901301582455,0.020552514881284623
0.8600000000000007,0.4996205141801102,0.0035798552693108317,0.01869806171911126
0.8700000000000007,0.49965475518146846,0.003256845014346978,0.017010935816443862
0.8800000000000007,0.49968590661803963,0.0029629799551190205,0.015476039246049567
0.8900000000000007,0.49971424726108243,0.00269563032550841,0.014079636363821812
0.9000000000000007,0.49974003072836753,0.0024524036419235505,0.01280923089067354
0.9100000000000007,0.499763487753766,0.002231123293632645,0.011653454085234216
0.9200000000000007,0.4997848282520552,0.002029809064799869,0.010601963006480197
0.9300000000000007,0.49980424319741973,0.001846659413955024,0.009645347956093175
0.9400000000000007,0.4998219063324566,0.0016800353523386217,0.008775048272187114
0.9500000000000007,0.49983797572297795,0.0015284457768683288,0.007983275720904182
0.9600000000000007,0.4998525951725252,0.0013905341264871926,0.007262944800374704
0.9700000000000008,0.4998658955092517,0.0012650662424893103,0.006607609333277864
0.9800000000000008,0.49987799575669056,0.0011509193241953364,0.006011404780670304
0.9900000000000008,0.49988900419888493,0.001047071881147298,0.005468995760811168
1.0000000000000007,0.4998990193494112,0.0009525945919069972,0.004975528303301502
1.0109999999999995,0.49990899747495515,0.0008597545959896323,0.004526586411421896
1.0219999999999982,0.49991799265540054,0.0007740192922721404,0.004048821184747808
1.032999999999997,0.49992609181400105,0.000697016048146653,0.0036485067665203985
1.0439999999999958,0.49993338605400534,0.0006278266198316951,0.00328841985273165
1.0549999999999946,0.4999399568193217,0.0005656146438802038,0.002964053727607663
1.0659999999999934,0.4999458769002718,0.0005096451303431155,0.002671808182435065
1.0769999999999922,0.4999512114672491,0.0004592693516699731,0.0024084661965506626
1.087999999999991,0.4999560189521884,0.00041391233513388517,0.002171143428770783
1.0989999999999898,0.49996035180531684,0.00037306274202372373,0.0019572507769005654
1.1099999999999886,0.499964257150403,0.0003362645699810019,0.001764462044682169
1.1209999999999873,0.4999677773563035,0.00030311026005126307,0.001590685737897779
1.1319999999999861,0.4999709505385968,0.00027323490021303565,0.001434040308616602
1.142999999999985,0.499973811002133,0.000246311296624901,0.0012928323139682618
1.1539999999999837,0.4999763896331213,0.00022204574127825696,0.0011655370644580998
1.1649999999999825,0.49997871424771634,0.00020017434643603756,0.0010507814185523046
1.1759999999999813,0.4999808099028042,0.00018045984665635597,0.0009473284425753903
1.18699999999998,0.49998269917371585,0.0001626887915079906,0.0008540637025866715
1.1979999999999789,0.49998440240284087,0.00014666906858463305,0.000769982992467888
1.2089999999999776,0.49998593792251617,0.00013222770870332932,0.0006941813316396761
1.2199999999999764,0.4999873222550824,0.00011920893441961311,0.0006258430896144418
1.2309999999999752,0.49998857029261445,0.00010747242003100888,0.000564233113924395
1.241999999999974,0.4999896954585092,9.689173664156588e-05,0.00050868875347998
1.2529999999999728,0.49999070985284744,8.735296008951664e-05,0.00045861268292757273
1.2639999999999716,0.4999916243832184,7.875342287032935e-05,0.0004134664444999103
1.2749999999999704,0.4999924488825047,7.100059387274814e-05,0.0003727646336448842
1.2859999999999692,0.49999319221495764,6.401107191074864e-05,0.00033606966261423565
1.296999999999968,0.4999938623717492,5.7709680832315715e-05,0.000302987043538927
1.3079999999999667,0.4999944665570595,5.2028655483755745e-05,0.0002731611387085664
1.3189999999999655,0.49999501126564905,4.690690907126603e-05,0.00024627133121679634
1.3299999999999643,0.4999955023527648,4.228937353998802e-05,0.00022202857397957132
1.340999999999963,0.49999594509714484,3.8126405528554084e-05,0.00020017227958746275
1.351999999999962,0.49999634425780537,3.437325124918587e-05,0.00018046751688594043
1.3629999999999607,0.4999967041252276,3.098956437228495e-05,0.00016270248420546807
1.3739999999999595,0.4999970285674979,2.793897159573039e-05,0.00014668623156133265
1.3849999999999583,0.49999732107190104,2.5188681145734244e-05,0.00013224660745159156
1.395999999999957,0.49999758478241524,2.2709129929008933e-05,0.00011922840784883704
1.4069999999999558,0.4999978225335132,2.0473665503325298e-05,0.00010749170761492621
1.4179999999999546,0.4999980368806345,1.8458259412592737e-05,9.69103562287188e-05
1.4289999999999534,0.49999823012765615,1.664124878234431e-05,8.737062166197518e-05
1.4399999999999522,0.49999840435165865,1.5003103382401476e-05,7.876996781064349e-05
1.450999999999951,0.4999985614252534,1.3526215640864188e-05,7.10159523054088e-05
1.4619999999999498,0.49999870303671123,1.2194711341836963e-05,6.402523280435446e-05
1.4729999999999486,0.49999883070810996,1.0994278971942366e-05,5.772267121173513e-05
1.4839999999999474,0.49999894581169446,9.912015868963733e-06,5.204052596408104e-05
1.4949999999999461,0.4999990495846263,8.936289524789672e-06,4.6917723963701974e-05
1.505999999999945,0.49999914314228217,8.056612544161875e-06,4.22992041171355e-05
1.5169999999999437,0.49999922749024167,7.263529912766825e-06,3.8135325470811665e-05
1.5279999999999425,0.4999993035350961,6.548517367393941e-06,3.4381333695598926e-05
1.5389999999999413,0.4999993720941931,5.903889771190287e-06,3.0996880044931174e-05
1.54999999999994,0.49999943390442114,5.322718506730812e-06,2.7945587626199142e-05
1.5609999999999389,0.49999948963013047,4.798757006079907e-06,2.519466048678254e-05
1.5719999999999377,0.49999953987027346,4.326373607420935e-06,2.2714531038303676e-05
1.5829999999999365,0.4999995851648421,3.900491024303349e-06,2.0478542297475144e-05
1.5939999999999352,0.49999962600067244,3.5165317741648686e-06,1.8462661381946077e-05
1.604999999999934,0.4999996628166769,3.1703689762466063e-06,1.6645221152522538e-05
1.6159999999999328,0.499999696008562,2.8582819952773874e-06,1.5006687363872118e-05
1.6269999999999316,0.4999997259330813,2.5769164513301793e-06,1.352944870358641e-05
1.6379999999999304,0.49999975291187004,2.3232481651595384e-06,1.2197627481391748e-05
1.6489999999999292,0.49999977723490213,2.0945506542770155e-06,1.0996908996752097e-05
1.659999999999928,0.4999997991636067,1.8883658279638238e-06,9.91438767083963e-06
1.6709999999999268,0.49999981893367823,1.702477566874327e-06,8.93842833082914e-06
1.6819999999999256,0.4999998367576099,1.534887903604452e-06,8.058541154376542e-06
1.6929999999999243,0.49999985282697706,1.3837955474126967e-06,7.2652689109276025e-06
1.7039999999999231,0.4999998673144967,1.2475765250346875e-06,6.550085349665835e-06
1.714999999999922,0.4999998803758839,1.124766725399066e-06,5.9053035306178e-06
1.7259999999999207,0.49999989215152524,1.014046161696293e-06,5.323993184092046e-06
1.7369999999999195,0.4999999027679879,9.142247851707566e-07,4.799906263563969e-06
1.7479999999999183,0.49999991233937985,8.24229694364393e-07,4.327409777182822e-06
1.758999999999917,0.4999999209685765,7.430936023577237e-07,3.90142522288528e-06
1.7699999999999159,0.49999992874832627,6.699444412702061e-07,3.5173740364768946e-06
1.7809999999999147,0.4999999357622477,6.03995988020478e-07,3.1711283465796214e-06
1.7919999999999134,0.49999994208572784,5.445394139907561e-07,2.858966623442427e-06
1.8029999999999122,0.4999999477867329,4.909356674675573e-07,2.577533697589729e-06
1.813999999999911,0.4999999529265385,4.4260860366687463e-07,2.3238046598095252e-06
1.8249999999999098,0.4999999575603884,3.990387928014218e-07,2.095052376027695e-06
1.8359999999999086,0.49999996173808814,3.597579366842493e-07,1.88881815965658e-06
1.8469999999999074,0.4999999655045407,3.2434383688398306e-07,1.7028853793732424e-06
1.8579999999999062,0.4999999689002285,2.9241585427037203e-07,1.5352555671199752e-06
1.868999999999905,0.4999999719616493,2.636308205953682e-07,1.3841270218861723e-06
1.8799999999999037,0.4999999747217079,2.3767934775297733e-07,1.2478753674827203e-06
1.8909999999999025,0.49999997721006983,2.1428250385331572e-07,1.125036148685865e-06
1.9019999999999013,0.4999999794534806,1.9318881482016346e-07,1.014289066070262e-06
1.9129999999999001,0.4999999814760532,1.7417156112644188e-07,9.144437829178287e-07
1.923999999999899,0.4999999832995262,1.570263404780814e-07,8.24427126566718e-07
1.9349999999998977,0.49999998494349895,1.4156887322193052e-07,7.432716042643506e-07
1.9459999999998965,0.4999999864256411,1.2763301887082e-07,6.701049226620626e-07
1.9569999999998953,0.49999998776188315,1.1506899215406724e-07,6.041406797052673e-07
1.967999999999894,0.49999998896658726,1.0374175172094908e-07,5.446698647659787e-07
1.9789999999998928,0.499999990052702,9.352954991858223e-08,4.91053278039999e-07
1.9899999999998916,0.49999999103190107,8.432262338253386e-08,4.427146294005979e-07
2.0009999999998906,0.499999991914709,7.602201456643347e-08,3.9913437888117187e-07
2.0119999999998894,0.4999999927106144,6.853850694380373e-08,3.598441145058473e-07
2.022999999999888,0.499999993428172,6.179166619156192e-08,3.244215340814094e-07
2.033999999999887,0.4999999940750941,5.570897551649274e-08,2.924859021646853e-07
2.044999999999886,0.49999999465833406,5.0225056955169514e-08,2.636939733235977e-07
2.0559999999998846,0.49999999518416066,4.528096838353328e-08,2.3773628843315464e-07
2.0669999999998834,0.49999999565822556,4.0823569090667214e-08,2.143338351245916e-07
2.077999999999882,0.4999999960856242,3.680495044950905e-08,1.9323509459212573e-07
2.088999999999881,0.49999999647095017,3.318191929081287e-08,1.7421328379896295e-07
2.0999999999998797,0.4999999968183453,2.991553488173744e-08,1.5706396183645666e-07
2.1109999999998785,0.4999999971315432,2.6970688541244558e-08,1.41602782832706e-07
2.1219999999998773,0.49999999741391027,2.431572937139673e-08,1.2766359525073767e-07
2.132999999999876,0.4999999976684816,2.192212091799739e-08,1.1509655895025617e-07
2.143999999999875,0.4999999978979932,1.9764136098732547e-08,1.0376660419808559e-07
2.1549999999998737,0.49999999810491197,1.7818580315296693e-08,9.355195285110085e-08
2.1659999999998725,0.49999999829146197,1.6064542795090225e-08,8.434282605662702e-08
2.1769999999998713,0.49999999845964826,1.4483170297272239e-08,7.604022744800432e-08
2.18799999999987,0.4999999986112785,1.3057465735848036e-08,6.855492173940547e-08
2.198999999999869,0.4999999987479824,1.1772105834213338e-08,6.180646661135825e-08
2.2099999999998676,0.49999999887122937,1.0613275163118915e-08,5.572232009143363e-08
2.2209999999998664,0.49999999898234404,9.56851814133105e-09,5.0237085602589104e-08
2.231999999999865,0.4999999990825208,8.626605781589529e-09,4.529181474310917e-08
2.242999999999864,0.4999999991728362,7.777413910826766e-09,4.083334559368268e-08
2.253999999999863,0.4999999992542611,7.011815689387656e-09,3.6813769810351005e-08
2.2649999999998616,0.4999999993276707,6.32158201319196e-09,3.318987307210364e-08
2.2759999999998604,0.4999999993938539,5.699293643902503e-09,2.992269987345253e-08
2.286999999999859,0.49999999945352214,5.138262615611985e-09,2.6977149403251133e-08
2.297999999999858,0.4999999995073167,4.632458730268101e-09,2.432155365994504e-08
2.3089999999998567,0.4999999995558158,4.176445492626822e-09,2.1927371030017184e-08
2.3199999999998555,0.49999999959954067,3.765321711527152e-09,1.9768870984648856e-08
2.3309999999998543,0.4999999996389613,3.39466867196045e-09,1.7822854303517488e-08
2.341999999999853,0.4999999996745014,3.0605021084362763e-09,1.6068395503054944e-08
2.352999999999852,0.4999999997065431,2.7592306014394907e-09,1.4486647437195188e-08
2.3639999999998507,0.4999999997354306,2.4876157924616728e-09,1.3060601489200963e-08
2.3749999999998495,0.4999999997614745,2.242738261625581e-09,1.1774932140440342e-08
2.3859999999998482,0.49999999978495463,2.0219656725588987e-09,1.0615814893810693e-08
2.396999999999847,0.49999999980612336,1.822926164222078e-09,9.570815251436215e-09
2.407999999999846,0.4999999998252083,1.64347996701292e-09,8.628679992739308e-09
2.4189999999998446,0.4999999998424146,1.4816981170362543e-09,7.779283883735388e-09
2.4299999999998434,0.49999999985792715,1.33584154154967e-09,7.01349645026994e-09
2.440999999999842,0.49999999987191257,1.2043429794986994e-09,6.323097601068639e-09
2.451999999999841,0.4999999998845213,1.0857890949655327e-09,5.700662164542791e-09
2.4629999999998398,0.4999999998958889,9.789055455890365e-10,5.139497716299957e-09
2.4739999999998386,0.49999999990613736,8.825432650270602e-10,4.633569083978273e-09
2.4849999999998373,0.499999999915377,7.956671853917993e-10,4.1774539383254705e-09
2.495999999999836,0.4999999999237072,7.173430093254387e-10,3.766231770896411e-09
2.506999999999835,0.4999999999312174,6.46728844537027e-10,3.3954883349451848e-09
2.5179999999998337,0.49999999993798827,5.830655199884727e-10,3.061235709367338e-09
2.5289999999998325,0.49999999994409255,5.256693459637497e-10,2.7598945351314796e-09
2.5399999999998313,0.499999999949596,4.739233979095938e-10,2.4882185201136053e-09
2.55099999999983,0.49999999995455763,4.272711415018738e-10,2.2432811164208033e-09
2.561999999999829,0.49999999995903094,3.852115800584975e-10,2.022462197714958e-09
2.5729999999998276,0.49999999996306377,3.4729185491984226e-10,1.823368123154978e-09
2.5839999999998264,0.4999999999666997,3.131054992847536e-10,1.6438894689940753e-09
2.5949999999998252,0.4999999999699776,2.822839931689891e-10,1.4820633609247125e-09
2.605999999999824,0.499999999972933,2.544969312092569e-10,1.336180055488967e-09
2.616999999999823,0.49999999997559746,2.2944482215039016e-10,1.2046452724234769e-09
2.6279999999998216,0.4999999999779997,2.0685865111924214e-10,1.0860601307172146e-09
2.6389999999998204,0.4999999999801653,1.8649535070160973e-10,9.791412125537136e-10
